&parameters
!PEST coordinates
!s0, alpha0 = 0.5 0.0
!major, minor radius[m] = 1.2112319052916318 0.12208777587640372
!Bref = 0.8417833827659601
my_dpdx = -0.0
q0 = 0.9417762795553886
shat = -0.0476762467597275
gridpoints = 512
n_pol = 2
sign_Ip_CW = -1
sign_Bt_CW = -1
/
     2.9533229328275135      2.3595014152923688      2.3556571187109325      1.1788847534007261      9.9028720106698103      0.0880897737417878     -0.2180027277054492      0.2922889139920343      0.0000000000000000
     2.9106762528296346      2.3835393082067529      2.4352827722825805      1.1861956417224349      9.6834818294619254      0.1008842373608017     -0.2275662536731642      0.3173911273743696      0.0000000000000000
     2.8571442981701636      2.4063591689891850      2.5262404289099107      1.1946836347287009      9.4536309622186980      0.1095885743583820     -0.2255705149915125      0.3827765605062515      0.0000000000000000
     2.7975070424148227      2.4311061237914253      2.6316409627648238      1.2048888501873314      9.2108932592364852      0.1168514265442302     -0.2128686673272705      0.4481451886168781      0.0000000000000000
     2.7318486275040401      2.4551200631367616      2.7478848522179344      1.2162199380268559      8.9607998325012232      0.1246882896823466     -0.1942243932669189      0.4669408381358219      0.0000000000000000
     2.6553190003254392      2.4702875757851324      2.8653026174522975      1.2271804165341422      8.7154909688852022      0.1328871198932334     -0.1749691231881218      0.4151688996695665      0.0000000000000000
     2.5614214495850471      2.4668893980608235      2.9724107306516312      1.2361445304667886      8.4884273228794189      0.1391690759769038     -0.1582197407636202      0.3070543774690660      0.0000000000000000
     2.4467265870384982      2.4388579826193797      3.0617327787293562      1.2422538922209516      8.2883848925134664      0.1409555089698052     -0.1439888201851923      0.1889841865050679      0.0000000000000000
     2.3138371850541550      2.3871442114153463      3.1336399039282963      1.2459033061136908      8.1161061604499274      0.1375288333178408     -0.1304384340938523      0.1127471829263943      0.0000000000000000
     2.1704602810013105      2.3187964415142028      3.1954236371655780      1.2484883452646647      7.9653563376201593      0.1310414699785609     -0.1163274345959563      0.1047764742209419      0.0000000000000000
     2.0254692337318101      2.2425423130204032      3.2562738949839587      1.2515936102454162      7.8274138421826986      0.1256259859262681     -0.1026387303194447      0.1536679589727648      0.0000000000000000
     1.8849864546037698      2.1641593142875357      3.3218152349943808      1.2561811911676399      7.6960151564595254      0.1251793045014876     -0.0919910911122265      0.2222762166046302      0.0000000000000000
     1.7508024004270997      2.0844023924903139      3.3915858737204325      1.2622453624969396      7.5699931145996571      0.1311921637466537     -0.0864920198266534      0.2715442066183574      0.0000000000000000
     1.6213509002973632      2.0000502667257005      3.4604606043063950      1.2690231860790351      7.4527606238491657      0.1418965604457450     -0.0858655053964287      0.2803938557401235      0.0000000000000000
     1.4940908135664563      1.9069266891518730      3.5228112034507650      1.2755510413954656      7.3496367612568063      0.1532367437713464     -0.0871203970316582      0.2533849760262205      0.0000000000000000
     1.3678059260986439      1.8030248871486609      3.5768562240454780      1.2812284715751450      7.2648334368556711      0.1611056985377250     -0.0858816978443472      0.2137298139138706      0.0000000000000000
     1.2436168946093031      1.6899415519313052      3.6263980677221892      1.2860588845981578      7.1998030466301532      0.1635072418035581     -0.0786800381433616      0.1850381620816979      0.0000000000000000
     1.1243419514489521      1.5718871237399477      3.6786159235726337      1.2904236034579493      7.1537539552422880      0.1613707651479933     -0.0649450175981417      0.1733847227595129      0.0000000000000000
     1.0129290240340874      1.4531814777909495      3.7393254787247940      1.2945790436724265      7.1256903280087807      0.1576052450376502     -0.0473532999995898      0.1636809677909483      0.0000000000000000
     0.9111562998957167      1.3360595027933220      3.8090236719502610      1.2982915389638250      7.1162074679588567      0.1550352464569606     -0.0301268243251050      0.1336408661439004      0.0000000000000000
     0.8193063844601972      1.2200846269988681      3.8825186392686661      1.3009096094270225      7.1275265749013004      0.1545291777055554     -0.0164524317171328      0.0736456156194398      0.0000000000000000
     0.7366928983269885      1.1031987771887861      3.9524996024936314      1.3018182844800077      7.1617345844361946      0.1545209997306256     -0.0068640837761848     -0.0032242211882092      0.0000000000000000
     0.6624676744286930      0.9834585846639305      4.0147372138292265      1.3009392136985483      7.2185300347436874      0.1522267627798022      0.0004506568418918     -0.0676133727384737      0.0000000000000000
     0.5961763402151217      0.8602735148867641      4.0714125377725416      1.2989262126308665      7.2940074640482289      0.1457448585172635      0.0078776715908319     -0.0915095786733404      0.0000000000000000
     0.5378448909093015      0.7344576129849294      4.1302126737845084      1.2969139523084492      7.3813868228684365      0.1356720156166125      0.0164151178523246     -0.0657962324060344      0.0000000000000000
     0.4877359990106732      0.6072847241730175      4.1995856585063347      1.2959530741383287      7.4736163582801796      0.1251450371223523      0.0248143117435291     -0.0072679294043559      0.0000000000000000
     0.4460903989445116      0.4793789119472454      4.2830304602920126      1.2964623502066823      7.5666214267368330      0.1181007125208803      0.0305123911396151      0.0499070576248689      0.0000000000000000
     0.4130647523011921      0.3502491560031121      4.3760302141716991      1.2980405868841212      7.6611545863928106      0.1167031104679677      0.0318939969150361      0.0745150939618050      0.0000000000000000
     0.3888310903600590      0.2187325965361346      4.4678847306296561      1.2997724964878847      7.7617414429357474      0.1197797539503362      0.0301823101609142      0.0577466864821021      0.0000000000000000
     0.3736461248874572      0.0840006439360540      4.5476466654092258      1.3008283690425313      7.8732427549496995      0.1237358206959580      0.0291796117905197      0.0171092759096474      0.0000000000000000
     0.3677303376310200     -0.0535240249548514      4.6100999487400482      1.3009261275781798      7.9974600856311451      0.1254169101861773      0.0328110317559386     -0.0194600112386802      0.0000000000000000
     0.3709622677914428     -0.1918261030290755      4.6571248870216033      1.3003154831325276      8.1322130804055295      0.1244845461709277      0.0424659117742404     -0.0370206851390829      0.0000000000000000
     0.3825767072434642     -0.3275576120270242      4.6932837446382925      1.2993256143038767      8.2734040112345220      0.1232416460124969      0.0562630056986980     -0.0454916137023353      0.0000000000000000
     0.4011326223001793     -0.4566712908525629      4.7192290496567795      1.2978782901470620      8.4183083609013796      0.1241269986535921      0.0706673152082793     -0.0701287931551029      0.0000000000000000
     0.4248985491569629     -0.5753473168837437      4.7284419453294309      1.2954086564856975      8.5673270222274880      0.1270689429151920      0.0832095059680183     -0.1271651305985415      0.0000000000000000
     0.4524957073619830     -0.6811688615530411      4.7104932753819160      1.2913121112722279      8.7225597716531702      0.1291425456720153      0.0942819738696954     -0.2042518725131048      0.0000000000000000
     0.4833237483616253     -0.7739962547786673      4.6588551340193654      1.2855602374204946      8.8843150386441483      0.1271561420618230      0.1063511461541829     -0.2658169506215686      0.0000000000000000
     0.5173070545461669     -0.8555950896653232      4.5768298219044032      1.2788992911363317      9.0488313180756208      0.1208113073749649      0.1210596944147256     -0.2827221056913697      0.0000000000000000
     0.5539862270033735     -0.9278034723176650      4.4761867502384973      1.2723704357939167      9.2096298011820483      0.1131015598502663      0.1370890715677187     -0.2589551419438851      0.0000000000000000
     0.5915968447392485     -0.9904402800623433      4.3696480599761260      1.2665299272156507      9.3614957806635140      0.1075081422434972      0.1509747294327617     -0.2291005019926527      0.0000000000000000
     0.6270143246307135     -1.0407164543649987      4.2635854101189148      1.2610465447575756      9.5035883793012186      0.1049192293649083      0.1598556549692112     -0.2294143863068003      0.0000000000000000
     0.6570047274948987     -1.0750006224768107      4.1563193955659550      1.2550279493063259      9.6390954790869436      0.1030535587592367      0.1635481241759836     -0.2681811086473092      0.0000000000000000
     0.6801307095384012     -1.0919747094893653      4.0425231330337299      1.2478122297169749      9.7719215762439386      0.0984984295178975      0.1645221897209920     -0.3195935500793785      0.0000000000000000
     0.6977209776234772     -1.0946826555468070      3.9196965502355736      1.2395662114880051      9.9032114860849489      0.0894359863525554      0.1661049345430677     -0.3463855217824633      0.0000000000000000
     0.7128333555334018     -1.0894216990714936      3.7913691252166157      1.2311680377536114     10.0306032000894856      0.0769752741884058      0.1701961707532133     -0.3327881827031934      0.0000000000000000
     0.7279456318639740     -1.0821011135458980      3.6647613301639002      1.2234394885647373     10.1510929025845549      0.0642168215090863      0.1760092826198055     -0.2998577605369925      0.0000000000000000
     0.7432032153800066     -1.0749457863248211      3.5455092473661933      1.2163574430506081     10.2653371045266812      0.0537176551648330      0.1807859380985777     -0.2898120344405551      0.0000000000000000
     0.7564927352146349     -1.0659959332897431      3.4341005283377934      1.2089353878078060     10.3793905051169819      0.0451398454058674      0.1820858817995236     -0.3305341627512223      0.0000000000000000
     0.7653074055910168     -1.0516663267571615      3.3266754334936341      1.1999697006239300     10.5013953990587154      0.0351007753650572      0.1798987877153666     -0.4076780568558910      0.0000000000000000
     0.7690953679182703     -1.0304549411813761      3.2191610835311684      1.1891192085411237     10.6349755865789017      0.0198932304263713      0.1766766112588761     -0.4706261831803817      0.0000000000000000
     0.7701473660906518     -1.0048248688307351      3.1109203872219684      1.1773674555193063     10.7747540413719260     -0.0008943994422949      0.1749454980209050     -0.4737007009785705      0.0000000000000000
     0.7721203872701168     -0.9795461611839370      3.0044887948513308      1.1663260135738840     10.9089138593111752     -0.0232716689025106      0.1744913714973134     -0.4185979811268428      0.0000000000000000
     0.7774717602496466     -0.9579687991580597      2.9018738562293218      1.1569013591766180     11.0280370719045600     -0.0417823331095022      0.1720727656690656     -0.3564284462559024      0.0000000000000000
     0.7860024591434508     -0.9395948922734370      2.8014354074091909      1.1485192892454299     11.1327954524730046     -0.0541733393473432      0.1644336036913680     -0.3439381250368438      0.0000000000000000
     0.7955872543175255     -0.9209853793326418      2.6986733539694860      1.1396561126234357     11.2326233354581859     -0.0634785745758632      0.1517976536413796     -0.3913802256991446      0.0000000000000000
     0.8044256106504101     -0.8991276324410653      2.5903571183050902      1.1293002733003006     11.3350867579804895     -0.0751461660685897      0.1382183937721367     -0.4484539435184212      0.0000000000000000
     0.8129608769362483     -0.8743224339322736      2.4780930142009954      1.1181023886376316     11.4346022259482218     -0.0914844743617214      0.1281892018741938     -0.4447064176099832      0.0000000000000000
     0.8237632882577413     -0.8499927114634008      2.3676649841387674      1.1081100501691876     11.5113619501623887     -0.1088869061616570      0.1225885061837193     -0.3520016140408206      0.0000000000000000
     0.8394415136434326     -0.8296252279465648      2.2644937079321861      1.1011957169264845     11.5437505000075316     -0.1209291084991909      0.1178021524866693     -0.2123646290065564      0.0000000000000000
     0.8604541083274089     -0.8136748204307045      2.1693540646748812      1.0975258101581602     11.5246290411410364     -0.1244213916730478      0.1090489127534726     -0.1055563970236369      0.0000000000000000
     0.8846817839518992     -0.7990531078990902      2.0780655519320810      1.0954181258355489     11.4661371830597911     -0.1225602921686510      0.0949973632928814     -0.0856996764765382      0.0000000000000000
     0.9090709723910575     -0.7814421483874859      1.9851378498934809      1.0926936278099688     11.3882506610731014     -0.1222045369360703      0.0793176813943595     -0.1403242408887215      0.0000000000000000
     0.9319724358280151     -0.7583857422278166      1.8880755499562565      1.0883406797991220     11.3024591948930730     -0.1277310834555485      0.0675962322805969     -0.2036278478154034      0.0000000000000000
     0.9541883396456869     -0.7305875038066681      1.7888502724890534      1.0831167853295443     11.2049896963019506     -0.1371612544789696      0.0625905312808077     -0.2107120580481111      0.0000000000000000
     0.9778531437549619     -0.7005460190919343      1.6918571897993491      1.0787136538322726     11.0834075905461269     -0.1442176958228522      0.0622795281207372     -0.1470059609208694      0.0000000000000000
     1.0041941734827371     -0.6700197989130986      1.6006687298480327      1.0763157906738423     10.9291491663335538     -0.1442815138160242      0.0620852408474990     -0.0542833572292033      0.0000000000000000
     1.0320927197897574     -0.6385601341557868      1.5163189118059612      1.0757428432582778     10.7452994612530137     -0.1385847393022213      0.0586684939767639      0.0069973286850192      0.0000000000000000
     1.0585836059259466     -0.6041478888285615      1.4379805373365890      1.0757453001938186     10.5444882037125467     -0.1329530357031301      0.0518102525598573      0.0057945109566509      0.0000000000000000
     1.0808526613994669     -0.5652154388833869      1.3649079296816808      1.0750794742759910     10.3404048783281333     -0.1325612037532679      0.0432881706129761     -0.0380561634109331      0.0000000000000000
     1.0981251553073410     -0.5223738873948278      1.2978714597065848      1.0734760453905223     10.1402201024725649     -0.1374236224913814      0.0345319310450861     -0.0723819597367046      0.0000000000000000
     1.1119813421240425     -0.4785979979366622      1.2391086398274309      1.0718253797722008      9.9425213921489792     -0.1422487396949136      0.0253982716344862     -0.0532566286175585      0.0000000000000000
     1.1249394791887324     -0.4379533622308351      1.1911574820743380      1.0715301815754770      9.7408605922715186     -0.1404207798120447      0.0146274403536229      0.0238808506236323      0.0000000000000000
     1.1383953170756564     -0.4039004651372272      1.1556256770621018      1.0735097919077463      9.5300505382020724     -0.1288342436414701      0.0009503242311116      0.1215682983779983      0.0000000000000000
     1.1512978231922530     -0.3781235472202215      1.1326024472420262      1.0774902853805970      9.3113919622720758     -0.1102472244091516     -0.0160518457093453      0.1836518801301895      0.0000000000000000
     1.1604257401914371     -0.3602413618299197      1.1207116081287396      1.0820021989953872      9.0939816400098596     -0.0919106333157224     -0.0354346880143205      0.1691452255093243      0.0000000000000000
     1.1622491874037713     -0.3483389433116711      1.1174743288760192      1.0851007378364630      8.8916541068635748     -0.0815873279127825     -0.0546949614571037      0.0777492749641829      0.0000000000000000
     1.1553893385632124     -0.3400462855959829      1.1197504780433609      1.0854106540083042      8.7175151398578361     -0.0834507281799680     -0.0701872322668965     -0.0478460514554656      0.0000000000000000
     1.1421787238257435     -0.3336969973010919      1.1241905110593238      1.0829001788027295      8.5789736745130636     -0.0961088678143090     -0.0783757790458759     -0.1445314194776713      0.0000000000000000
     1.1283780358859579     -0.3290598806707175      1.1276656438488326      1.0789590999084224      8.4753543079663594     -0.1134842901444593     -0.0775470950906098     -0.1616406521732831      0.0000000000000000
     1.1213562175157672     -0.3274084047229627      1.1276555373453552      1.0757821733673885      8.3985146032579863     -0.1277897515396485     -0.0690895121116979     -0.0844502633889605      0.0000000000000000
     1.1278374263303530     -0.3310418871556381      1.1226130215151513      1.0754237536427320      8.3356334705043107     -0.1331248690946363     -0.0575185327760257      0.0621182510112197      0.0000000000000000
     1.1521601030800663     -0.3424767186008810      1.1122650693087470      1.0789889406863706      8.2730252660433958     -0.1279689206399853     -0.0490364520285150      0.2277207198816852      0.0000000000000000
     1.1954214307856776     -0.3634533284451302      1.0976294464286562      1.0862925210846257      8.2001357218302005     -0.1151343834758403     -0.0491801736544800      0.3597352364875381      0.0000000000000000
     1.2555004655504982     -0.3939407246314655      1.0804791577683790      1.0960624029099100      8.1130584589611434     -0.0993019492627417     -0.0606497220927529      0.4238845486632754      0.0000000000000000
     1.3278364504171023     -0.4315051224817856      1.0622936822415003      1.1065060332415935      8.0165814979881720     -0.0842217880347395     -0.0823616790281104      0.4133678954390322      0.0000000000000000
     1.4068188089683356     -0.4714825017831166      1.0432226737211230      1.1159433363058566      7.9234363089996522     -0.0716452992361894     -0.1100678767741590      0.3454897464639930      0.0000000000000000
     1.4875956278845728     -0.5081444216563008      1.0217756044066491      1.1232889959997077      7.8501110298870014     -0.0619236341394124     -0.1380912877317620      0.2516458741898353      0.0000000000000000
     1.5678846380898328     -0.5365249800449927      0.9955564289573242      1.1282989750511523      7.8104709347015477     -0.0547227041328969     -0.1614239352633018      0.1660804703091198      0.0000000000000000
     1.6490092232653548     -0.5540538473335496      0.9626271552023493      1.1315499952495496      7.8101219622645610     -0.0490307186522241     -0.1774271989630486      0.1154629370667860      0.0000000000000000
     1.7353868171030147     -0.5610435717132930      0.9226040417242436      1.1341538705367114      7.8444156387290178     -0.0430764318984443     -0.1864020563438626      0.1112757676274091      0.0000000000000000
     1.8324750243449734     -0.5597015591686160      0.8768079884795574      1.1373051062486110      7.9011683276792875     -0.0349030921352498     -0.1906704256805161      0.1480192724832936      0.0000000000000000
