&parameters
!PEST coordinates
!s0, alpha0 = 0.5 0.0
!major, minor radius[m] = 1.271591372823016 0.11334503403452513
!Bref = 0.976651717289998
my_dpdx = -0.0
q0 = 0.8956891310152459
shat = -0.05943084734004268
gridpoints = 512
n_pol = 2
sign_Ip_CW = -1
sign_Bt_CW = -1
/
     0.9191755258170798      1.6426567877351492      4.6426424644680946      1.2526300356313529      8.1725086093007917      0.1097079883040973     -0.0562836300674010      0.1787789415111244      0.0000000000000000
     0.8259013916377818      1.4794524062272141      4.5635406863793984      1.2570820106042757      8.0878542402564797      0.1093279803514779     -0.0427442065994933      0.1747406655320101      0.0000000000000000
     0.7432290931371084      1.3182723624036798      4.4772265705368826      1.2608580500247100      8.0162255816237309      0.1095533597574334     -0.0330060403709795      0.1292327430303958      0.0000000000000000
     0.6698151711766530      1.1575040203259628      4.3826796569519857      1.2632378111673839      7.9625831158172451      0.1086266625885272     -0.0262802765910610      0.0692569823603777      0.0000000000000000
     0.6050670078335890      0.9975441133430919      4.2862167881805151      1.2642603010792617      7.9280177539594190      0.1056774988385945     -0.0206857379231077      0.0246549026978672      0.0000000000000000
     0.5490408181964687      0.8402556730026739      4.1984195119729240      1.2645450122365973      7.9102915630883324      0.1011234408632181     -0.0146094491922117      0.0095991430155548      0.0000000000000000
     0.5020252048990214      0.6876931138600654      4.1283980849514998      1.2647679928160547      7.9061993245178384      0.0964068979519357     -0.0077752598828110      0.0153327633169859      0.0000000000000000
     0.4641681365527656      0.5410113015377188      4.0789942292319958      1.2651663613930635      7.9140578739432073      0.0931902811846241     -0.0012743438030501      0.0187395132000903      0.0000000000000000
     0.4353663409509630      0.4000757789681503      4.0456238668718463      1.2654121189821557      7.9345977082665282      0.0923273729770246      0.0034775212687325      0.0004749032039112      0.0000000000000000
     0.4153966356553780      0.2637026119108276      4.0192270305986240      1.2649246297377685      7.9697221294395604      0.0932196085241437      0.0060302925140138     -0.0399285200453654      0.0000000000000000
     0.4041272742057055      0.1301707303801534      3.9915548921605919      1.2633890055575150      8.0201204994088151      0.0941320990131092      0.0074063427975758     -0.0822769756503340      0.0000000000000000
     0.4016557818762285     -0.0023031220730591      3.9596786926711087      1.2611195569461973      8.0834430146578260      0.0933780507568079      0.0094982288619318     -0.0983653740346183      0.0000000000000000
     0.4083054330428955     -0.1352511706773898      3.9270003065497368      1.2590165533287356      8.1543588935189568      0.0905658238944573      0.0139239615174616     -0.0706532945408703      0.0000000000000000
     0.4244943686358228     -0.2697369991671083      3.9002167068223290      1.2581184283626705      8.2267777766443686      0.0870643578466899      0.0211562978219725     -0.0053620946720457      0.0000000000000000
     0.4505374764414260     -0.4060832134563110      3.8841719805353003      1.2589922422016213      8.2972892822268154      0.0853563579166293      0.0303903423973626      0.0677041084245990      0.0000000000000000
     0.4864624825947774     -0.5435296615018622      3.8776722086624971      1.2613158035886187      8.3678671486827749      0.0874983325723902      0.0401959637886507      0.1094463673701159      0.0000000000000000
     0.5319324981037995     -0.6800963037464884      3.8728044736547775      1.2639381218909098      8.4457889580744734      0.0934242396502412      0.0496738222052984      0.0937050092526152      0.0000000000000000
     0.5863373074810843     -0.8130262853926975      3.8585127596731259      1.2654557446424988      8.5401603081198250      0.1003357731278101      0.0594161360085780      0.0248125087305477      0.0000000000000000
     0.6489921791781575     -0.9397828917086503      3.8265363582695611      1.2649902317051864      8.6568308542994057      0.1041627273322905      0.0713366642003472     -0.0633615009531544      0.0000000000000000
     0.7192192686260093     -1.0589130838996115      3.7757087537482463      1.2626422965994166      8.7949744733035864      0.1024231480608871      0.0871012367189977     -0.1294346423400038      0.0000000000000000
     0.7960824258490754     -1.1699567054181172      3.7114291090178515      1.2592874159305287      8.9477218207290914      0.0961896072955263      0.1062353381618181     -0.1521959781455382      0.0000000000000000
     0.8778214486073460     -1.2723322708282880      3.6408746851077285      1.2558696122161777      9.1065161935418821      0.0894124927640605      0.1255112578134408     -0.1429487183397988      0.0000000000000000
     0.9614224410208332     -1.3641078524483956      3.5677214193759146      1.2527159306033153      9.2662929292907794      0.0860681476522524      0.1402871070451898     -0.1345041203476756      0.0000000000000000
     1.0429309745896918     -1.4418844650425009      3.4900881499229590      1.2493559240953664      9.4279016101389370      0.0871879082783663      0.1471545653741358     -0.1555472151782979      0.0000000000000000
     1.1187621358819912     -1.5023544243217362      3.4028861187924271      1.2449704117545524      9.5959378606213068      0.0899051694018592      0.1463665619967321     -0.2077311646731553      0.0000000000000000
     1.1873747066260381     -1.5446937291993494      3.3027082940663504      1.2391422737969287      9.7734457981216369      0.0895276918110423      0.1421446350835092     -0.2627128817467294      0.0000000000000000
     1.2499429078499287     -1.5718152801881493      3.1915101918351634      1.2323158095967841      9.9575822348632865      0.0834157635971187      0.1399490429031927     -0.2842883591105774      0.0000000000000000
     1.3091154642722742     -1.5890635791910630      3.0762153278730935      1.2255602793981861     10.1399250090510620      0.0734300695164243      0.1424672020681443     -0.2590976549728923      0.0000000000000000
     1.3665059582858368     -1.6010649296868940      2.9647410531700182      1.2198062980892324     10.3114536376573493      0.0644807617673867      0.1478264415476868     -0.2090967271465204      0.0000000000000000
     1.4207292824218622     -1.6090430490382364      2.8616658430750936      1.2151678592297308     10.4682727019027038      0.0602861784972674      0.1516742302818807     -0.1748691229492561      0.0000000000000000
     1.4675641369450330     -1.6105312142564951      2.7665161281314283      1.2108794580102571     10.6134892369111498      0.0601272048148845      0.1511399550053764     -0.1841814939961809      0.0000000000000000
     1.5024390216974002     -1.6017086587782132      2.6754094645145465      1.2058892780434272     10.7538934373817821      0.0593854402280169      0.1472459502657618     -0.2308659936475722      0.0000000000000000
     1.5236725831708240     -1.5807752369637893      2.5845555674017899      1.1996524946557219     10.8942755382948135      0.0532647669725966      0.1439728182348633     -0.2804680721796527      0.0000000000000000
     1.5339737991248974     -1.5498991023601554      2.4930503610981063      1.1925127698798637     11.0338831233419263      0.0405054547053407      0.1450127548849730     -0.2983948604465448      0.0000000000000000
     1.5388581891886106     -1.5142438841140133      2.4031160413413071      1.1853776863143208     11.1676743091935720      0.0241834183597126      0.1509782988140184     -0.2776509649227958      0.0000000000000000
     1.5431528790218536     -1.4788907822065327      2.3180080482173850      1.1789498918558989     11.2912961840504344      0.0092824794213947      0.1591132577628367     -0.2440736427522446      0.0000000000000000
     1.5482064281397618     -1.4460088123899295      2.2394554563192228      1.1731145926535695     11.4058156058469056     -0.0009041940116129      0.1652877102452254     -0.2361046370218374      0.0000000000000000
     1.5517044291698587     -1.4141930936712406      2.1664879101137844      1.1669647722528205     11.5182345181676933     -0.0070033283054731      0.1665451895530332     -0.2742954258163744      0.0000000000000000
     1.5501408499090543     -1.3802743570298688      2.0963064853637117      1.1594882561791426     11.6368498504618980     -0.0129355467837926      0.1625835993522924     -0.3422743084436941      0.0000000000000000
     1.5421754788824242     -1.3422512384749401      2.0264477331467114      1.1504345336038129     11.7644428418609852     -0.0228331683068332      0.1555138121228179     -0.3952132851987732      0.0000000000000000
     1.5302770533142831     -1.3011234276315913      1.9565367221208743      1.1406669434574395     11.8943365835879398     -0.0377598344591738      0.1482216571208897     -0.3930712047357537      0.0000000000000000
     1.5192274661862606     -1.2601413862038791      1.8881684156780683      1.1316364277716069     12.0130693734799490     -0.0547489696607169      0.1423142741227605     -0.3341838629697864      0.0000000000000000
     1.5126627884951469     -1.2221141596893923      1.8230339397154807      1.1243098253853352     12.1090570708058181     -0.0688944899605784      0.1369825215980175     -0.2611978437717355      0.0000000000000000
     1.5104504176482580     -1.1870508969728093      1.7609625097014752      1.1183723558089080     12.1813671388400611     -0.0770414456129747      0.1298622515117734     -0.2314574531692552      0.0000000000000000
     1.5090248346260413     -1.1521050470127541      1.6996057545198000      1.1123853888340358     12.2410084056479072     -0.0804560515508322      0.1194987669670208     -0.2710698818231034      0.0000000000000000
     1.5046106018387806     -1.1139634883236234      1.6361131908382418      1.1048975515518888     12.3021083208092588     -0.0840777193281312      0.1071950752643894     -0.3483865580392972      0.0000000000000000
     1.4969019373015247     -1.0717882168574207      1.5694602014945425      1.0957180450920814     12.3687678272430404     -0.0923723639932857      0.0962764438950554     -0.3938897889859382      0.0000000000000000
     1.4900095786366421     -1.0281417515944311      1.5014082574241190      1.0862951825514195     12.4278623841523093     -0.1053257281749387      0.0893717530201281     -0.3547897647467067      0.0000000000000000
     1.4896658021250901     -0.9870110043213458      1.4352100714356073      1.0787922133718337     12.4547221057496511     -0.1183725070678131      0.0861514242060165     -0.2381869721125771      0.0000000000000000
     1.4989439068900441     -0.9506283522471145      1.3731664271538451      1.0745255627634756     12.4294141660111936     -0.1261473060931540      0.0833040503226918     -0.1076028877323145      0.0000000000000000
     1.5157761655862065     -0.9176279633985088      1.3150025957721527      1.0729438536775944     12.3519405346773912     -0.1267381450643253      0.0768279563993935     -0.0383323342490604      0.0000000000000000
     1.5340521310571287     -0.8838289948872905      1.2582292490085929      1.0719307666993072     12.2432962972356894     -0.1233104696986780      0.0652081453133708     -0.0643395764288209      0.0000000000000000
     1.5477095019524856     -0.8450609835638964      1.2001584348465137      1.0692841285263672     12.1302823904637762     -0.1218033337721202      0.0509654681327965     -0.1531240976042683      0.0000000000000000
     1.5549788910903031     -0.7999758997233909      1.1400328132200914      1.0643145773544997     12.0262421938544559     -0.1260516098548129      0.0388112352279883     -0.2288688567707569      0.0000000000000000
     1.5593689378333950     -0.7506851139983127      1.0796358024355162      1.0583111045964300     11.9230606904111038     -0.1343157127047828      0.0316970453661688     -0.2283990128242334      0.0000000000000000
     1.5665180081750218     -0.7008724307773601      1.0220844503812796      1.0535138979501781     11.7997800734167715     -0.1405552890977078      0.0282267414484253     -0.1454456398552728      0.0000000000000000
     1.5795699154300515     -0.6531662626201370      0.9700276952487791      1.0514753434692437     11.6400782483920668     -0.1394323248118946      0.0235734334836680     -0.0295500381165379      0.0000000000000000
     1.5966717028152684     -0.6078270017087019      0.9246440788377521      1.0520928532452536     11.4446312652566764     -0.1305726920132320      0.0129771961491363      0.0548637172253462      0.0000000000000000
     1.6122900755915521     -0.5633968713558863      0.8858237801022205      1.0539396826802767     11.2294770367197199     -0.1185486036481221     -0.0048805105765498      0.0751908806909143      0.0000000000000000
     1.6212816319061243     -0.5184698713590643      0.8529538636820131      1.0554939244467130     11.0137881852594912     -0.1089666539864012     -0.0268762125510324      0.0493404998048481      0.0000000000000000
     1.6226889394366208     -0.4731450739724329      0.8255127736784289      1.0562595259628451     10.8082266805875271     -0.1042268790979757     -0.0472034147360583      0.0264283301822022      0.0000000000000000
     1.6205219273335401     -0.4292507526030467      0.8031452408827653      1.0570043827126816     10.6116545808004279     -0.1023107224595018     -0.0605110238320794      0.0488628914892175      0.0000000000000000
     1.6212723656706329     -0.3895356363331686      0.7854667386183208      1.0591116586563645     10.4157039825237216     -0.0989577894345048     -0.0645309749314692      0.1249965468302040      0.0000000000000000
     1.6301405482121401     -0.3566277535541854      0.7719807833916984      1.0636041664276592     10.2122810810696443     -0.0910269222867493     -0.0609661283429445      0.2263204769119870      0.0000000000000000
     1.6481635819657892     -0.3322764665343709      0.7621978516019936      1.0704293956400881      9.9995773161432719     -0.0786812357533427     -0.0544472875370162      0.3045439362013730      0.0000000000000000
     1.6714707175225580     -0.3168936747442893      0.7557607566965570      1.0783368551515089      9.7842728401939656     -0.0653898103697768     -0.0502096131819925      0.3172438725369364      0.0000000000000000
     1.6929875870574491     -0.3093206608112029      0.7523747229683886      1.0853947648651110      9.5794818651387352     -0.0560998689921694     -0.0516164644095362      0.2509478954836476      0.0000000000000000
     1.7060168503732152     -0.3069566558568719      0.7515314324626585      1.0899095828515231      9.3996481461630879     -0.0547048739467636     -0.0587416198933054      0.1308509248824943      0.0000000000000000
     1.7080387852040300     -0.3064186520028602      0.7522051570613900      1.0912851104986696      9.2548707730638586     -0.0620332308505021     -0.0687336341560736      0.0106216519567234      0.0000000000000000
     1.7026546734266792     -0.3045840242213245      0.7527459753604469      1.0903646293968510      9.1471783080901847     -0.0751924421315414     -0.0776684953157419     -0.0530374262269281      0.0000000000000000
     1.6986872699017328     -0.2995438457137322      0.7510836217487841      1.0890958045054508      9.0699588610701092     -0.0885504280054441     -0.0827552245625992     -0.0265056529100547      0.0000000000000000
     1.7072509233006419     -0.2910444513279727      0.7451886887307232      1.0897326296940553      9.0101792867760366     -0.0960134512539209     -0.0837597498868051      0.0875646447366490      0.0000000000000000
     1.7384413627676822     -0.2803100129572978      0.7336240486088828      1.0939783761385093      8.9522459435277586     -0.0935672297164207     -0.0831026431460599      0.2540505834279947      0.0000000000000000
     1.7987781740010482     -0.2693665683240307      0.7159771629024796      1.1024181355463583      8.8824317465625597     -0.0807155543598599     -0.0846569061096624      0.4211969500843332      0.0000000000000000
     1.8896748943540311     -0.2600505824002628      0.6929806883097912      1.1143975518478459      8.7930602003881706     -0.0600954883750916     -0.0917486976998453      0.5397066910617752      0.0000000000000000
     2.0068836099349250     -0.2529536933304184      0.6662289557798817      1.1282988969458425      8.6855432325522397     -0.0358869036916032     -0.1053097189335616      0.5774073260292342      0.0000000000000000
     2.1410604782138440     -0.2466869678986019      0.6375893519150320      1.1420433015364380      8.5710370166478853     -0.0123398379758117     -0.1231665916584058      0.5263157376432813      0.0000000000000000
     2.2798499643350274     -0.2378861678865488      0.6085981268596392      1.1536561831601153      8.4676454151611438      0.0069517733331288     -0.1408501496683499      0.4034208479677404      0.0000000000000000
     2.4116170334702502     -0.2221449056132870      0.5801609924416613      1.1617993684097867      8.3943791992474068      0.0195472088401008     -0.1535089742898539      0.2464646481484106      0.0000000000000000
     2.5298094962539155     -0.1955496443506368      0.5526810023525541      1.1661637898447041      8.3640378952749881      0.0249845186265272     -0.1580315690599770      0.1029570740245622      0.0000000000000000
     2.6355965539638482     -0.1559970370239150      0.5264453776357720      1.1675455227042744      8.3783425495983579      0.0253683375409755     -0.1543999857112901      0.0125864091807269      0.0000000000000000
     2.7366958569167767     -0.1035150326962871      0.5019698821638952      1.1674859891325553      8.4278428436908879      0.0246179833321208     -0.1455738486351126     -0.0091416359489327      0.0000000000000000
     2.8427285948047953     -0.0395230382504397      0.4801252912356241      1.1676060225658067      8.4967092712164973      0.0264109392983275     -0.1358839430211234      0.0245826594265663      0.0000000000000000
     2.9598329014654889      0.0342873206063282      0.4620786686694908      1.1689739202561229      8.5700183994442067      0.0322641789650808     -0.1288068047208625      0.0820069276351312      0.0000000000000000
     3.0874440747836682      0.1166799102339450      0.4491574201748600      1.1718080961112141      8.6399495575522067      0.0410973381187210     -0.1254728366170092      0.1304651717598416      0.0000000000000000
     3.2186213978402836      0.2069288963749483      0.4426921877952291      1.1756015396976560      8.7079384980735064      0.0503887499190078     -0.1248169472413473      0.1517249107220500      0.0000000000000000
     3.3435937187624782      0.3044576658818157      0.4438498824423719      1.1795589042915897      8.7818879119271767      0.0580339301594383     -0.1251355210147932      0.1483795751593551      0.0000000000000000
     3.4547452836387138      0.4085339363123247      0.4534872284931276      1.1831242059514215      8.8700686545823810      0.0637214759705742     -0.1257512156645389      0.1389592369204602      0.0000000000000000
     3.5502279754927097      0.5182887548607255      0.4720841650467800      1.1863318153539990      8.9751707781655004      0.0690092462097403     -0.1273901121707928      0.1445618521796374      0.0000000000000000
     3.6338250904789535      0.6328956988697880      0.4997819396544929      1.1897744267031700      9.0920125631016315      0.0761936349154878     -0.1310866204860013      0.1746933196634475      0.0000000000000000
     3.7111573987739481      0.7515307129711483      0.5364619931415224      1.1941928162860709      9.2103445778656479      0.0868525466273019     -0.1368652741643458      0.2207731711716123      0.0000000000000000
